# Mean squared displacement computed by LiquidLib
# t                 <r2(t)>
0.000000000000000e+00        0.000000000000000e+00
2.000000000000000e-02        1.031535018283974e-02
4.000000000000000e-02        3.767889481501818e-02
6.000000000000000e-02        7.473497351338670e-02
8.000000000000000e-02        1.159353379060463e-01
1.000000000000000e-01        1.596040028096688e-01
1.200000000000000e-01        2.061761766348512e-01
1.400000000000000e-01        2.552355314198494e-01
1.800000000000000e-01        3.498759349517783e-01
2.200000000000000e-01        4.242375853212644e-01
2.600000000000000e-01        4.806373531441678e-01
3.000000000000000e-01        5.278579944360495e-01
3.600000000000000e-01        5.866705529414274e-01
4.400000000000000e-01        6.505638288398377e-01
5.400000000000000e-01        7.136298920883392e-01
6.400000000000000e-01        7.707543209208297e-01
7.600000000000000e-01        8.240975085907067e-01
9.200000000000000e-01        8.753184243021769e-01
1.100000000000000e+00        9.128878728392543e-01
1.320000000000000e+00        9.477168018568332e-01
1.580000000000000e+00        9.784497355179607e-01
1.900000000000000e+00        1.011066789206238e+00
2.280000000000000e+00        1.047639370343999e+00
2.740000000000000e+00        1.090599915480665e+00
3.300000000000000e+00        1.143485698139305e+00
3.960000000000000e+00        1.209285828760482e+00
4.740000000000000e+00        1.291009690692077e+00
5.700000000000000e+00        1.400456648196162e+00
6.840000000000000e+00        1.525051958591959e+00
8.199999999999999e+00        1.651294440583517e+00
9.840000000000000e+00        1.808880997880137e+00
1.182000000000000e+01        1.998089428121486e+00
1.418000000000000e+01        2.214878402940246e+00
1.702000000000000e+01        2.475375540695398e+00
2.042000000000000e+01        2.787338635801785e+00
2.450000000000000e+01        3.153481127330994e+00
2.940000000000000e+01        3.591094271251549e+00
3.528000000000000e+01        4.108115653912757e+00
4.232000000000000e+01        4.729205839548948e+00
5.080000000000000e+01        5.467754163747857e+00
6.096000000000000e+01        6.353072323250704e+00
7.314000000000000e+01        7.410630144324248e+00
8.778000000000000e+01        8.674385038032222e+00
1.053200000000000e+02        1.018346674965132e+01
1.264000000000000e+02        1.200470564139687e+01
1.516800000000000e+02        1.417770402998303e+01
1.820000000000000e+02        1.679814307826236e+01
2.184200000000000e+02        1.991416821776198e+01
2.621000000000000e+02        2.360782081545826e+01
3.145200000000000e+02        2.808045742561367e+01
3.774200000000000e+02        3.336869013373493e+01
4.529000000000000e+02        3.974665081265994e+01
5.434800000000000e+02        4.741711105715003e+01
6.521800000000001e+02        5.650054562233795e+01
7.826000000000000e+02        6.721232326038648e+01
9.391200000000000e+02        8.006619821437312e+01
1.126960000000000e+03        9.522545188905843e+01
1.352340000000000e+03        1.141777611348564e+02
1.622800000000000e+03        1.389926923346949e+02
1.947380000000000e+03        1.678844412129279e+02
2.336840000000000e+03        2.040913584138818e+02
2.804220000000000e+03        2.469774007260138e+02
3.365060000000000e+03        2.978403138832587e+02
4.038060000000000e+03        3.565325240716483e+02
