# Mean squared displacement computed by LiquidLib
# t                 <r2(t)>
0.000000000000000e+00        0.000000000000000e+00
2.000000000000000e-02        1.754787082828757e-02
4.000000000000000e-02        6.188079686341180e-02
6.000000000000000e-02        1.158498441089967e-01
8.000000000000000e-02        1.672047294377567e-01
1.000000000000000e-01        2.147154118521756e-01
1.200000000000000e-01        2.639802489504817e-01
1.400000000000000e-01        3.187556362004211e-01
1.800000000000000e-01        4.288528556462730e-01
2.200000000000000e-01        5.048976957948136e-01
2.600000000000000e-01        5.557737774631569e-01
3.000000000000000e-01        6.011728015870319e-01
3.600000000000000e-01        6.592492741700166e-01
4.400000000000000e-01        7.288649340312454e-01
5.400000000000000e-01        7.975631129599779e-01
6.400000000000000e-01        8.500190972304251e-01
7.600000000000000e-01        8.879214739359733e-01
9.200000000000000e-01        9.179382325252394e-01
1.100000000000000e+00        9.350453566398482e-01
1.320000000000000e+00        9.440923824520300e-01
1.580000000000000e+00        9.481700332493697e-01
1.900000000000000e+00        9.531414238165650e-01
2.280000000000000e+00        9.607621158239742e-01
2.740000000000000e+00        9.717128725294710e-01
3.300000000000000e+00        9.887424198734814e-01
3.960000000000000e+00        1.015895577948779e+00
4.740000000000000e+00        1.056051142696254e+00
5.700000000000000e+00        1.106528793373376e+00
6.840000000000000e+00        1.158295184801889e+00
8.199999999999999e+00        1.201081926439995e+00
9.840000000000000e+00        1.266347695090607e+00
1.182000000000000e+01        1.339939501080185e+00
1.418000000000000e+01        1.424638380032025e+00
1.702000000000000e+01        1.520592664126456e+00
2.042000000000000e+01        1.636078663961603e+00
2.450000000000000e+01        1.770140042171657e+00
2.940000000000000e+01        1.927921017794381e+00
3.528000000000000e+01        2.113939224426607e+00
4.232000000000000e+01        2.327754574699155e+00
5.080000000000000e+01        2.584905491546596e+00
6.096000000000000e+01        2.888900733863760e+00
7.314000000000000e+01        3.251244366506418e+00
8.778000000000000e+01        3.679140384309427e+00
1.053200000000000e+02        4.193532909444581e+00
1.264000000000000e+02        4.809942599420173e+00
1.516800000000000e+02        5.533479733161040e+00
1.820000000000000e+02        6.399125518772267e+00
2.184200000000000e+02        7.448847594156677e+00
2.621000000000000e+02        8.689859163180669e+00
3.145200000000000e+02        1.019430065812340e+01
3.774200000000000e+02        1.199175470337052e+01
4.529000000000000e+02        1.418208500030059e+01
5.434800000000000e+02        1.682762205061519e+01
6.521800000000001e+02        1.994769489746437e+01
7.826000000000000e+02        2.374208633536249e+01
9.391200000000000e+02        2.838281560482674e+01
1.126960000000000e+03        3.395681598211060e+01
1.352340000000000e+03        4.067769152048448e+01
1.622800000000000e+03        4.825574611238832e+01
1.947380000000000e+03        5.779942494420683e+01
2.336840000000000e+03        7.021719584044764e+01
2.804220000000000e+03        8.509970381117829e+01
3.365060000000000e+03        1.018437140441696e+02
4.038060000000000e+03        1.230369277684373e+02
