# Mean squared displacement computed by LiquidLib
# t                 <r2(t)>
0.000000000000000e+00        0.000000000000000e+00
2.000000000000000e-02        1.254684500083341e-02
4.000000000000000e-02        4.598223525197671e-02
6.000000000000000e-02        9.184392340635900e-02
8.000000000000000e-02        1.439041760802311e-01
1.000000000000000e-01        2.001349356506637e-01
1.200000000000000e-01        2.604577043817708e-01
1.400000000000000e-01        3.237868649078575e-01
1.800000000000000e-01        4.477014854892425e-01
2.200000000000000e-01        5.534864609745208e-01
2.600000000000000e-01        6.418647318704909e-01
3.000000000000000e-01        7.198892056480073e-01
3.600000000000000e-01        8.244891399398329e-01
4.400000000000000e-01        9.469983094841883e-01
5.400000000000000e-01        1.079942744984531e+00
6.400000000000000e-01        1.203537376438409e+00
7.600000000000000e-01        1.335499825823825e+00
9.200000000000000e-01        1.488758177447612e+00
1.100000000000000e+00        1.637087630407846e+00
1.320000000000000e+00        1.799473807853377e+00
1.580000000000000e+00        1.974261130482033e+00
1.900000000000000e+00        2.175992602043977e+00
2.280000000000000e+00        2.406618986381813e+00
2.740000000000000e+00        2.678113216191217e+00
3.300000000000000e+00        2.999763789409270e+00
3.960000000000000e+00        3.372934257695256e+00
4.740000000000000e+00        3.811804979292575e+00
5.700000000000000e+00        4.353026214234449e+00
6.840000000000000e+00        4.995367953856275e+00
8.199999999999999e+00        5.752931405825467e+00
9.840000000000000e+00        6.661906666600400e+00
1.182000000000000e+01        7.749988451798798e+00
1.418000000000000e+01        9.043738547691403e+00
1.702000000000000e+01        1.059073581505058e+01
2.042000000000000e+01        1.242077892163006e+01
2.450000000000000e+01        1.462400004879401e+01
2.940000000000000e+01        1.726189947008609e+01
3.528000000000000e+01        2.043256219907462e+01
4.232000000000000e+01        2.422583504246070e+01
5.080000000000000e+01        2.881868894064594e+01
6.096000000000000e+01        3.431686971535587e+01
7.314000000000000e+01        4.088071473551865e+01
8.778000000000000e+01        4.882153787700923e+01
1.053200000000000e+02        5.835280709901765e+01
1.264000000000000e+02        6.973757199275430e+01
1.516800000000000e+02        8.332222310942774e+01
1.820000000000000e+02        9.942771426925043e+01
2.184200000000000e+02        1.186257079116481e+02
2.621000000000000e+02        1.420745987106129e+02
3.145200000000000e+02        1.703263102644003e+02
3.774200000000000e+02        2.037606579311867e+02
4.529000000000000e+02        2.436927207374476e+02
5.434800000000000e+02        2.913826001146384e+02
6.521800000000001e+02        3.497484792820131e+02
7.826000000000000e+02        4.196085951073121e+02
9.391200000000000e+02        5.058345181648168e+02
1.126960000000000e+03        6.118175159464352e+02
1.352340000000000e+03        7.362534440046815e+02
1.622800000000000e+03        8.854415336512859e+02
1.947380000000000e+03        1.069533497337273e+03
2.336840000000000e+03        1.285733332767225e+03
2.804220000000000e+03        1.552187346468617e+03
3.365060000000000e+03        1.861277199138440e+03
4.038060000000000e+03        2.189151562885178e+03
