# Mean squared displacement computed by LiquidLib
# t                 <r2(t)>
0.000000000000000e+00        0.000000000000000e+00
2.000000000000000e-02        2.025749734154545e-02
4.000000000000000e-02        7.165882889175973e-02
6.000000000000000e-02        1.349586767967653e-01
8.000000000000000e-02        1.963584661569802e-01
1.000000000000000e-01        2.539957800554037e-01
1.200000000000000e-01        3.132635017370424e-01
1.400000000000000e-01        3.777980192934339e-01
1.800000000000000e-01        5.073488934022738e-01
2.200000000000000e-01        6.046188315139450e-01
2.600000000000000e-01        6.767855901555716e-01
3.000000000000000e-01        7.417263399595342e-01
3.600000000000000e-01        8.286292555511489e-01
4.400000000000000e-01        9.352248274866606e-01
5.400000000000000e-01        1.047366773839910e+00
6.400000000000000e-01        1.140764382860548e+00
7.600000000000000e-01        1.225499609556411e+00
9.200000000000000e-01        1.312181999121935e+00
1.100000000000000e+00        1.386967827792843e+00
1.320000000000000e+00        1.459315751399857e+00
1.580000000000000e+00        1.529949336913248e+00
1.900000000000000e+00        1.608439485046889e+00
2.280000000000000e+00        1.696226622227573e+00
2.740000000000000e+00        1.798724032325886e+00
3.300000000000000e+00        1.921574209356750e+00
3.960000000000000e+00        2.066505588227405e+00
4.740000000000000e+00        2.241873984456396e+00
5.700000000000000e+00        2.460279978467117e+00
6.840000000000000e+00        2.714695694834308e+00
8.199999999999999e+00        3.001215448857089e+00
9.840000000000000e+00        3.336258851125300e+00
1.182000000000000e+01        3.740403214615237e+00
1.418000000000000e+01        4.214551107868013e+00
1.702000000000000e+01        4.780942262449878e+00
2.042000000000000e+01        5.450677202233347e+00
2.450000000000000e+01        6.246707986153267e+00
2.940000000000000e+01        7.198766114636570e+00
3.528000000000000e+01        8.339174641407620e+00
4.232000000000000e+01        9.685539771199860e+00
5.080000000000000e+01        1.129442251763790e+01
6.096000000000000e+01        1.321057335797057e+01
7.314000000000000e+01        1.548442703312763e+01
8.778000000000000e+01        1.818504987193933e+01
1.053200000000000e+02        2.140359874817453e+01
1.264000000000000e+02        2.522920026290793e+01
1.516800000000000e+02        2.977893677311847e+01
1.820000000000000e+02        3.518305645200983e+01
2.184200000000000e+02        4.171526612769648e+01
2.621000000000000e+02        4.948887071022776e+01
3.145200000000000e+02        5.876443196677020e+01
3.774200000000000e+02        6.999170736603378e+01
4.529000000000000e+02        8.355060309167823e+01
5.434800000000000e+02        9.986047775222413e+01
6.521800000000001e+02        1.193056152941811e+02
7.826000000000000e+02        1.425142820215871e+02
9.391200000000000e+02        1.703130804171882e+02
1.126960000000000e+03        2.040261225381198e+02
1.352340000000000e+03        2.443070719859232e+02
1.622800000000000e+03        2.949203981415496e+02
1.947380000000000e+03        3.571350784473235e+02
2.336840000000000e+03        4.284469408069062e+02
2.804220000000000e+03        5.119554643184438e+02
3.365060000000000e+03        6.107433035446974e+02
4.038060000000000e+03        7.372888908296062e+02
