# Mean squared displacement computed by LiquidLib
# t                 <r2(t)>
0.000000000000000e+00        0.000000000000000e+00
2.000000000000000e-02        2.297000991804178e-02
4.000000000000000e-02        8.149399388276750e-02
6.000000000000000e-02        1.543717933781862e-01
8.000000000000000e-02        2.264116925105124e-01
1.000000000000000e-01        2.951348634126389e-01
1.200000000000000e-01        3.655374547375139e-01
1.400000000000000e-01        4.408780692044463e-01
1.800000000000000e-01        5.915214997980256e-01
2.200000000000000e-01        7.118616057384672e-01
2.600000000000000e-01        8.080164850737138e-01
3.000000000000000e-01        8.961281244523441e-01
3.600000000000000e-01        1.017476084158854e+00
4.400000000000000e-01        1.169701117326788e+00
5.400000000000000e-01        1.338340969820557e+00
6.400000000000000e-01        1.487548677246302e+00
7.600000000000000e-01        1.639617538358336e+00
9.200000000000000e-01        1.813492919455788e+00
1.100000000000000e+00        1.982746625040095e+00
1.320000000000000e+00        2.165560337871162e+00
1.580000000000000e+00        2.362086639739391e+00
1.900000000000000e+00        2.588899613606522e+00
2.280000000000000e+00        2.847149551595767e+00
2.740000000000000e+00        3.151180075467641e+00
3.300000000000000e+00        3.510718988757744e+00
3.960000000000000e+00        3.924107520856535e+00
4.740000000000000e+00        4.408381259730984e+00
5.700000000000000e+00        5.000314401454943e+00
6.840000000000000e+00        5.701424004772663e+00
8.199999999999999e+00        6.525541344060520e+00
9.840000000000000e+00        7.507190518633749e+00
1.182000000000000e+01        8.679566005655534e+00
1.418000000000000e+01        1.007159362459045e+01
1.702000000000000e+01        1.173185360428957e+01
2.042000000000000e+01        1.369098438850056e+01
2.450000000000000e+01        1.603445215788525e+01
2.940000000000000e+01        1.883400245176182e+01
3.528000000000000e+01        2.219488807898125e+01
4.232000000000000e+01        2.621953423990718e+01
5.080000000000000e+01        3.108219932121341e+01
6.096000000000000e+01        3.689138223415497e+01
7.314000000000000e+01        4.381648640842914e+01
8.778000000000000e+01        5.215527788052034e+01
1.053200000000000e+02        6.216930037617839e+01
1.264000000000000e+02        7.420183671484487e+01
1.516800000000000e+02        8.859094844229278e+01
1.820000000000000e+02        1.057879398659281e+02
2.184200000000000e+02        1.264023014167811e+02
2.621000000000000e+02        1.511588742963150e+02
3.145200000000000e+02        1.808588723395558e+02
3.774200000000000e+02        2.163247330609904e+02
4.529000000000000e+02        2.585572956647844e+02
5.434800000000000e+02        3.083208075849857e+02
6.521800000000001e+02        3.676776777300557e+02
7.826000000000000e+02        4.398826307844091e+02
9.391200000000000e+02        5.291421083539580e+02
1.126960000000000e+03        6.369311737562080e+02
1.352340000000000e+03        7.648301878766397e+02
1.622800000000000e+03        9.212652728364897e+02
1.947380000000000e+03        1.110582080415659e+03
2.336840000000000e+03        1.329658487212451e+03
2.804220000000000e+03        1.590839974532561e+03
3.365060000000000e+03        1.914025179689151e+03
4.038060000000000e+03        2.299953751318569e+03
