# Mean squared displacement computed by LiquidLib
# t                 <r2(t)>
0.000000000000000e+00        0.000000000000000e+00
2.000000000000000e-02        8.825014404716379e-03
4.000000000000000e-02        3.215128756381963e-02
6.000000000000000e-02        6.345086170620154e-02
8.000000000000000e-02        9.777188401397177e-02
1.000000000000000e-01        1.337589988260456e-01
1.200000000000000e-01        1.721411605932066e-01
1.400000000000000e-01        2.128329775626195e-01
1.800000000000000e-01        2.906691981097962e-01
2.200000000000000e-01        3.476895213886792e-01
2.600000000000000e-01        3.874315237006360e-01
3.000000000000000e-01        4.196674036150410e-01
3.600000000000000e-01        4.567862887698363e-01
4.400000000000000e-01        4.950112564132193e-01
5.400000000000000e-01        5.285907752733487e-01
6.400000000000000e-01        5.583377729044724e-01
7.600000000000000e-01        5.814174848515995e-01
9.200000000000000e-01        5.965813828239551e-01
1.100000000000000e+00        5.987113949299380e-01
1.320000000000000e+00        5.952846763356436e-01
1.580000000000000e+00        5.888245097253012e-01
1.900000000000000e+00        5.829236835129564e-01
2.280000000000000e+00        5.774149618010376e-01
2.740000000000000e+00        5.745005134074264e-01
3.300000000000000e+00        5.768457893493336e-01
3.960000000000000e+00        5.890278631117014e-01
4.740000000000000e+00        6.098316210737615e-01
5.700000000000000e+00        6.327274680844199e-01
6.840000000000000e+00        6.482169467508800e-01
8.199999999999999e+00        6.513493575644966e-01
9.840000000000000e+00        6.859699158427859e-01
1.182000000000000e+01        6.978216918357802e-01
1.418000000000000e+01        7.311580443669262e-01
1.702000000000000e+01        7.581103430674923e-01
2.042000000000000e+01        7.919075413724120e-01
2.450000000000000e+01        8.314238389681359e-01
2.940000000000000e+01        8.767144658548721e-01
3.528000000000000e+01        9.293049451455437e-01
4.232000000000000e+01        9.905887589515773e-01
5.080000000000000e+01        1.063022154628269e+00
6.096000000000000e+01        1.149448398283927e+00
7.314000000000000e+01        1.245960356260824e+00
8.778000000000000e+01        1.358204311733038e+00
1.053200000000000e+02        1.488986430430123e+00
1.264000000000000e+02        1.639614910524667e+00
1.516800000000000e+02        1.814362090775976e+00
1.820000000000000e+02        2.019649061162077e+00
2.184200000000000e+02        2.257749045102864e+00
2.621000000000000e+02        2.536830173408040e+00
3.145200000000000e+02        2.863032555910276e+00
3.774200000000000e+02        3.248900252095058e+00
4.529000000000000e+02        3.718739426410464e+00
5.434800000000000e+02        4.288201031884157e+00
6.521800000000001e+02        4.982733166628134e+00
7.826000000000000e+02        5.879166813177712e+00
9.391200000000000e+02        7.006710516132444e+00
1.126960000000000e+03        8.506629336079511e+00
1.352340000000000e+03        1.047345926224899e+01
1.622800000000000e+03        1.300406532791571e+01
1.947380000000000e+03        1.585042797958201e+01
2.336840000000000e+03        1.922184933008833e+01
2.804220000000000e+03        2.375268840259670e+01
3.365060000000000e+03        2.957525703787814e+01
4.038060000000000e+03        3.558055500647961e+01
