# Mean squared displacement computed by LiquidLib
# t                 <r2(t)>
0.000000000000000e+00        0.000000000000000e+00
2.000000000000000e-02        2.432118660017076e-02
4.000000000000000e-02        8.640410089089634e-02
6.000000000000000e-02        1.641202186934336e-01
8.000000000000000e-02        2.416495209156325e-01
1.000000000000000e-01        3.162406538072712e-01
1.200000000000000e-01        3.926597107576937e-01
1.400000000000000e-01        4.739060457406075e-01
1.800000000000000e-01        6.361098746286905e-01
2.200000000000000e-01        7.690485312803736e-01
2.600000000000000e-01        8.785094991318536e-01
3.000000000000000e-01        9.799503457967697e-01
3.600000000000000e-01        1.121552152733950e+00
4.400000000000000e-01        1.301155926587452e+00
5.400000000000000e-01        1.504549921851124e+00
6.400000000000000e-01        1.688838216272963e+00
7.600000000000000e-01        1.883443310111083e+00
9.200000000000000e-01        2.113148211995092e+00
1.100000000000000e+00        2.344626402042078e+00
1.320000000000000e+00        2.603244799271752e+00
1.580000000000000e+00        2.886759491552422e+00
1.900000000000000e+00        3.217178676737493e+00
2.280000000000000e+00        3.594911941663988e+00
2.740000000000000e+00        4.038261468282531e+00
3.300000000000000e+00        4.564933255523558e+00
3.960000000000000e+00        5.174644841395147e+00
4.740000000000000e+00        5.885809127263576e+00
5.700000000000000e+00        6.750311197413698e+00
6.840000000000000e+00        7.767796434088104e+00
8.199999999999999e+00        8.971371737701569e+00
9.840000000000000e+00        1.040747470601992e+01
1.182000000000000e+01        1.212046033277385e+01
1.418000000000000e+01        1.414484843767859e+01
1.702000000000000e+01        1.657650404581869e+01
2.042000000000000e+01        1.947429209906846e+01
2.450000000000000e+01        2.294959470380494e+01
2.940000000000000e+01        2.711860404732690e+01
3.528000000000000e+01        3.213352446711414e+01
4.232000000000000e+01        3.812864563909507e+01
5.080000000000000e+01        4.534713216864194e+01
6.096000000000000e+01        5.406285984105913e+01
7.314000000000000e+01        6.446349377979448e+01
8.778000000000000e+01        7.698839955019949e+01
1.053200000000000e+02        9.187960028249148e+01
1.264000000000000e+02        1.097569433604805e+02
1.516800000000000e+02        1.311457440075593e+02
1.820000000000000e+02        1.569076067110157e+02
2.184200000000000e+02        1.880952018174031e+02
2.621000000000000e+02        2.255667439483198e+02
3.145200000000000e+02        2.704677350813983e+02
3.774200000000000e+02        3.245064641957344e+02
4.529000000000000e+02        3.903532184703754e+02
5.434800000000000e+02        4.694761889793345e+02
6.521800000000001e+02        5.646392976094071e+02
7.826000000000000e+02        6.794006023550986e+02
9.391200000000000e+02        8.138939593256817e+02
1.126960000000000e+03        9.766510691844729e+02
1.352340000000000e+03        1.170907350194486e+03
1.622800000000000e+03        1.398728975125635e+03
1.947380000000000e+03        1.662015618448816e+03
2.336840000000000e+03        1.983206046256706e+03
2.804220000000000e+03        2.363288328303247e+03
3.365060000000000e+03        2.818832255087860e+03
4.038060000000000e+03        3.375503596067202e+03
