# Mean squared displacement computed by LiquidLib
# t                 <r2(t)>
0.000000000000000e+00        0.000000000000000e+00
2.000000000000000e-02        2.161286854542243e-02
4.000000000000000e-02        7.657068023981242e-02
6.000000000000000e-02        1.446364895022118e-01
8.000000000000000e-02        2.112910702104190e-01
1.000000000000000e-01        2.743502475499078e-01
1.200000000000000e-01        3.390197726141267e-01
1.400000000000000e-01        4.087721084948036e-01
1.800000000000000e-01        5.484807200666399e-01
2.200000000000000e-01        6.568234848357980e-01
2.600000000000000e-01        7.404041932727522e-01
3.000000000000000e-01        8.162426432076320e-01
3.600000000000000e-01        9.193260192603554e-01
4.400000000000000e-01        1.047391977948968e+00
5.400000000000000e-01        1.186135944238528e+00
6.400000000000000e-01        1.305536952124855e+00
7.600000000000000e-01        1.421653625541655e+00
9.200000000000000e-01        1.548366459569987e+00
1.100000000000000e+00        1.665400612552900e+00
1.320000000000000e+00        1.786988711409007e+00
1.580000000000000e+00        1.913305632216001e+00
1.900000000000000e+00        2.055874673995157e+00
2.280000000000000e+00        2.216178627600780e+00
2.740000000000000e+00        2.403461403239989e+00
3.300000000000000e+00        2.625150797551145e+00
3.960000000000000e+00        2.880477736499361e+00
4.740000000000000e+00        3.182557151144595e+00
5.700000000000000e+00        3.556603492282215e+00
6.840000000000000e+00        3.993708057915921e+00
8.199999999999999e+00        4.504759386715334e+00
9.840000000000000e+00        5.112551916512842e+00
1.182000000000000e+01        5.833996285334168e+00
1.418000000000000e+01        6.689875930651782e+00
1.702000000000000e+01        7.703554320455954e+00
2.042000000000000e+01        8.901617708642961e+00
2.450000000000000e+01        1.032584049961745e+01
2.940000000000000e+01        1.202647456381545e+01
3.528000000000000e+01        1.405980775102986e+01
4.232000000000000e+01        1.648394400961486e+01
5.080000000000000e+01        1.940952384591325e+01
6.096000000000000e+01        2.292636796174498e+01
7.314000000000000e+01        2.715546440996015e+01
8.778000000000000e+01        3.222282368904703e+01
1.053200000000000e+02        3.834977449723343e+01
1.264000000000000e+02        4.573840823346450e+01
1.516800000000000e+02        5.461023476356124e+01
1.820000000000000e+02        6.519427682827579e+01
2.184200000000000e+02        7.781177605417989e+01
2.621000000000000e+02        9.289030570472136e+01
3.145200000000000e+02        1.110201805708270e+02
3.774200000000000e+02        1.327795810761408e+02
4.529000000000000e+02        1.588007427805664e+02
5.434800000000000e+02        1.900795836143155e+02
6.521800000000001e+02        2.268526886865346e+02
7.826000000000000e+02        2.707870238942489e+02
9.391200000000000e+02        3.230807984850630e+02
1.126960000000000e+03        3.867097295771480e+02
1.352340000000000e+03        4.611271882493351e+02
1.622800000000000e+03        5.502512682571601e+02
1.947380000000000e+03        6.605008137781419e+02
2.336840000000000e+03        7.948331586728322e+02
2.804220000000000e+03        9.516910056704572e+02
3.365060000000000e+03        1.132693151735871e+03
4.038060000000000e+03        1.360908733590688e+03
