# Mean squared displacement computed by LiquidLib
# t                 <r2(t)>
0.000000000000000e+00        0.000000000000000e+00
2.000000000000000e-02        1.180520130477014e-02
4.000000000000000e-02        4.322003221928501e-02
6.000000000000000e-02        8.613238564809103e-02
8.000000000000000e-02        1.345093135461083e-01
1.000000000000000e-01        1.864205263493170e-01
1.200000000000000e-01        2.419684902569762e-01
1.400000000000000e-01        3.003131952706356e-01
1.800000000000000e-01        4.139060122323868e-01
2.200000000000000e-01        5.084353665075478e-01
2.600000000000000e-01        5.851492099672925e-01
3.000000000000000e-01        6.517127927306765e-01
3.600000000000000e-01        7.391818948284962e-01
4.400000000000000e-01        8.394407898146646e-01
5.400000000000000e-01        9.455326211658486e-01
6.400000000000000e-01        1.043198526267224e+00
7.600000000000000e-01        1.144125865506216e+00
9.200000000000000e-01        1.255946772821658e+00
1.100000000000000e+00        1.357692457734980e+00
1.320000000000000e+00        1.465277998118731e+00
1.580000000000000e+00        1.577756574153330e+00
1.900000000000000e+00        1.704936554302707e+00
2.280000000000000e+00        1.847056380306474e+00
2.740000000000000e+00        2.013782691132457e+00
3.300000000000000e+00        2.212443004599760e+00
3.960000000000000e+00        2.441313057768676e+00
4.740000000000000e+00        2.713429759425040e+00
5.700000000000000e+00        3.053773049401705e+00
6.840000000000000e+00        3.453358748928785e+00
8.199999999999999e+00        3.921896841328024e+00
9.840000000000000e+00        4.481323266242958e+00
1.182000000000000e+01        5.148511423793556e+00
1.418000000000000e+01        5.940906549985270e+00
1.702000000000000e+01        6.885494628334802e+00
2.042000000000000e+01        8.008716302365000e+00
2.450000000000000e+01        9.346941515094425e+00
2.940000000000000e+01        1.094521972310964e+01
3.528000000000000e+01        1.286384573461984e+01
4.232000000000000e+01        1.515314786755008e+01
5.080000000000000e+01        1.792385270490611e+01
6.096000000000000e+01        2.123941659891604e+01
7.314000000000000e+01        2.521770070855422e+01
8.778000000000000e+01        2.996705613316362e+01
1.053200000000000e+02        3.571984912232224e+01
1.264000000000000e+02        4.264537412695161e+01
1.516800000000000e+02        5.097408098751514e+01
1.820000000000000e+02        6.090518259472395e+01
2.184200000000000e+02        7.279026023901007e+01
2.621000000000000e+02        8.693322424082601e+01
3.145200000000000e+02        1.040743147360036e+02
3.774200000000000e+02        1.249647910004654e+02
4.529000000000000e+02        1.500094728226703e+02
5.434800000000000e+02        1.798165711971212e+02
6.521800000000001e+02        2.152718182648086e+02
7.826000000000000e+02        2.589988572221365e+02
9.391200000000000e+02        3.106647711646497e+02
1.126960000000000e+03        3.726517410521745e+02
1.352340000000000e+03        4.476900347490354e+02
1.622800000000000e+03        5.368786857447885e+02
1.947380000000000e+03        6.420934602592408e+02
2.336840000000000e+03        7.670533620183511e+02
2.804220000000000e+03        9.077875885950385e+02
3.365060000000000e+03        1.076952420364090e+03
4.038060000000000e+03        1.280694433254490e+03
